<<<<<<< HEAD
position,velocity,dt
0.000005,0.000973,10
0.000022,0.001682,10
0.00008,0.005843,10
0.000184,0.010388,10
0.000346,0.016231,10
0.00058,0.023372,10
0.000898,0.03181,10
0.001314,0.041546,10
0.001839,0.052579,10
0.002488,0.064908,10
0.003274,0.078532,10
0.004208,0.093451,10
0.005305,0.109661,10
0.006577,0.127163,10
0.008036,0.145954,10
0.009696,0.166032,10
0.01157,0.187394,10
0.013671,0.210037,10
0.01601,0.233956,10
0.018602,0.259149,10
0.021458,0.28561,10
0.024591,0.313334,10
0.028014,0.342313,10
0.03174,0.372541,10
0.03578,0.40401,10
0.040147,0.436709,10
0.044847,0.469983,10
0.049879,0.503177,10
0.055241,0.536282,10
0.060934,0.569288,10
0.066956,0.602185,10
0.073306,0.634962,10
0.079982,0.667609,10
0.086983,0.700111,10
0.094307,0.732458,10
0.101954,0.764634,10
0.10992,0.796627,10
0.118204,0.828422,10
0.126804,0.860002,10
0.135718,0.891353,10
0.144942,0.922459,10
0.154475,0.953301,10
0.164314,0.983865,10
0.174455,1.014132,10
0.184896,1.044084,10
0.195633,1.073705,10
0.206663,1.102977,10
0.217982,1.131882,10
0.229586,1.160404,10
0.241471,1.188525,10
0.253633,1.21623,10
0.266069,1.243501,10
0.278772,1.270324,10
0.291739,1.296684,10
0.304964,1.322568,10
0.318444,1.347962,10
0.332172,1.372855,10
0.346145,1.397235,10
0.360356,1.421093,10
0.3748,1.444419,10
0.389472,1.467206,10
0.404366,1.489446,10
0.419472,1.510554,10
0.434772,1.529963,10
0.450249,1.547696,10
0.465886,1.563782,10
0.481669,1.578246,10
0.49758,1.59112,10
0.513604,1.602434,10
0.529727,1.612219,10
0.545932,1.620509,10
0.562205,1.627334,10
0.578532,1.632729,10
0.5949,1.636725,10
0.611293,1.639356,10
0.6277,1.640653,10
0.644106,1.640647,10
0.6605,1.63937,10
0.676868,1.636852,10
0.6932,1.633121,10
0.709482,1.628208,10
0.725703,1.622139,10
0.741852,1.614942,10
0.757919,1.606644,10
0.773892,1.597271,10
0.78976,1.586849,10
0.805514,1.575404,10
0.821139,1.562505,10
0.836621,1.548192,10
0.851951,1.532955,10
0.867119,1.516819,10
0.882117,1.499809,10
0.896936,1.481953,10
0.911569,1.463276,10
0.926007,1.443806,10
0.940243,1.42357,10
0.954269,1.402599,10
0.968078,1.38092,10
0.981664,1.358564,10
0.995019,1.335563,10
1.008139,1.311946,10
1.021016,1.287747,10
1.033646,1.262998,10
1.046024,1.237731,10
1.058143,1.211978,10
1.070001,1.185774,10
1.081593,1.159149,10
1.092914,1.132136,10
1.103962,1.104766,10
1.114732,1.077067,10
1.125223,1.049069,10
1.135431,1.020798,10
1.145354,0.992278,10
1.154993,0.963894,10
1.164353,0.936035,10
1.17344,0.908716,10
1.182259,0.881928,10
1.190816,0.855664,10
1.199115,0.829914,10
1.207162,0.804665,10
1.214961,0.779906,10
1.222517,0.755625,10
1.229835,0.731808,10
1.23692,0.708439,10
1.243775,0.685504,10
1.250405,0.662987,10
1.256813,0.640872,10
1.263005,0.619141,10
1.268983,0.597778,10
1.27475,0.576765,10
1.280311,0.556085,10
1.285668,0.535719,10
1.290825,0.515652,10
1.295783,0.495864,10
1.300547,0.47634,10
1.305117,0.457063,10
1.309498,0.438016,10
1.313689,0.419184,10
1.317695,0.400551,10
1.321516,0.382103,10
1.325154,0.363826,10
1.328611,0.345705,10
1.331889,0.327729,10
1.334987,0.309884,10
1.337909,0.29216,10
1.340654,0.274545,10
1.343225,0.25703,10
1.345621,0.239604,10
1.347843,0.222259,10
1.349896,0.205295,10
1.351787,0.189029,10
1.353521,0.173469,10
1.355107,0.158608,10
1.356552,0.144438,10
1.357861,0.130953,10
1.359043,0.118146,10
1.360103,0.106014,10
1.361048,0.094551,10
1.361886,0.083754,10
1.362622,0.073621,10
1.363264,0.064147,10
1.363817,0.055331,10
1.364289,0.047171,10
1.364685,0.039665,10
1.365013,0.032812,10
1.36528,0.02661,10
1.36549,0.021059,10
1.365652,0.016158,10
1.365771,0.011907,10
1.365854,0.008304,10
1.365907,0.00535,10
1.365938,0.003045,10
1.365952,0.001388,10
1.365955,0.000379,10
1.365956,0.000018,10
1.365956,0,10
=======
{{0.004801,0.96025,10.0},

{0.023993,1.919176,10.0},

{0.055865,3.187152,10.0},

{0.1002,4.433544,10.0},

{0.150386,5.018641,10.0},

{0.199976,4.958971,10.0},

{0.248898,4.892147,10.0},

{0.297095,4.819718,10.0},

{0.344526,4.743163,10.0},

{0.391164,4.663803,10.0},

{0.436992,4.582761,10.0},

{0.482001,4.500935,10.0},

{0.526191,4.418998,10.0},

{0.569566,4.337418,10.0},

{0.61213,4.256476,10.0},

{0.653893,4.176303,10.0},

{0.694862,4.096901,10.0},

{0.735044,4.018178,10.0},

{0.774444,3.939968,10.0},

{0.813064,3.86206,10.0},

{0.850907,3.784216,10.0},

{0.887968,3.706193,10.0},

{0.924246,3.627763,10.0},

{0.959733,3.548732,10.0},

{0.994423,3.468966,10.0},

{1.028307,3.388412,10.0},

{1.061378,3.307128,10.0},

{1.093632,3.225309,10.0},

{1.125065,3.14332,10.0},

{1.155682,3.061719,10.0},

{1.185495,2.981282,10.0},

{1.214525,2.903013,10.0},

{1.242806,2.82813,10.0},

{1.270387,2.758037,10.0},

{1.297329,2.694258,10.0},

{1.322212,2.488276,10.0},

{1.341971,1.975884,10.0},

{1.355102,1.313085,10.0},

{1.361764,0.666206,10.0},

{1.363491,0.172734,10.0},

{1.363491,0,10.0}}
>>>>>>> parent of 73cd4e7... Merge branch 'master' of https://github.com/ASL-Robotics/Griffins-2018
