<<<<<<< HEAD
<<<<<<< HEAD
position,velocity,dt
0.000005,0.000974,10
0.000009,0.000379,10
0.000038,0.002914,10
0.00009,0.005181,10
0.000171,0.008096,10
0.000287,0.011659,10
0.000446,0.01587,10
0.000653,0.02073,10
0.000916,0.026239,10
0.00124,0.032398,10
0.001632,0.039208,10
0.002098,0.04667,10
0.002646,0.054786,10
0.003282,0.063556,10
0.004012,0.072984,10
0.004842,0.083071,10
0.00578,0.09382,10
0.006833,0.105234,10
0.008006,0.117317,10
0.009307,0.130073,10
0.010742,0.143507,10
0.012318,0.157625,10
0.014042,0.172432,10
0.015922,0.187937,10
0.017963,0.204148,10
0.020174,0.221073,10
0.022558,0.238397,10
0.025116,0.2558,10
0.027849,0.273293,10
0.030758,0.290884,10
0.033844,0.308585,10
0.037108,0.326404,10
0.040551,0.344356,10
0.044176,0.36245,10
0.047983,0.380701,10
0.051974,0.399122,10
0.056151,0.417727,10
0.060516,0.436531,10
0.065072,0.455548,10
0.06982,0.474796,10
0.074763,0.49429,10
0.079903,0.514047,10
0.085244,0.534084,10
0.090788,0.554418,10
0.096539,0.575067,10
0.102499,0.596049,10
0.108673,0.617381,10
0.115064,0.639081,10
0.121676,0.661165,10
0.128512,0.683651,10
0.135578,0.706556,10
0.142877,0.729895,10
0.150414,0.753684,10
0.158193,0.777937,10
0.16622,0.802668,10
0.174499,0.827891,10
0.183035,0.853617,10
0.191833,0.879857,10
0.2009,0.906622,10
0.210239,0.93392,10
0.219856,0.961759,10
0.229758,0.990147,10
0.239945,1.018696,10
0.250415,1.046999,10
0.261165,1.075033,10
0.272193,1.102771,10
0.283495,1.130184,10
0.295067,1.157243,10
0.306906,1.183917,10
0.319008,1.210175,10
0.331368,1.235982,10
0.343981,1.261308,10
0.356842,1.286119,10
0.369946,1.310383,10
0.383287,1.334066,10
0.396858,1.357137,10
0.410654,1.379564,10
0.424667,1.401316,10
0.43889,1.422364,10
0.453317,1.442676,10
0.467939,1.462226,10
0.482749,1.480984,10
0.497738,1.498923,10
0.512899,1.516017,10
0.528221,1.532239,10
0.543697,1.547563,10
0.559316,1.561964,10
0.575066,1.574955,10
0.590931,1.586496,10
0.606901,1.597015,10
0.622966,1.606486,10
0.639115,1.614883,10
0.655336,1.622181,10
0.67162,1.628351,10
0.687954,1.633368,10
0.704326,1.637203,10
0.720724,1.639827,10
0.737136,1.641211,10
0.753549,1.641324,10
0.769951,1.640136,10
0.786327,1.637615,10
0.802664,1.633729,10
0.818949,1.628446,10
0.835166,1.621733,10
0.851301,1.613557,10
0.86734,1.603884,10
0.883267,1.592684,10
0.899066,1.579924,10
0.914722,1.565572,10
0.930218,1.5496,10
0.945538,1.531979,10
0.960665,1.512682,10
0.975582,1.491684,10
0.990277,1.469518,10
1.004744,1.446767,10
1.018979,1.423475,10
1.032976,1.399649,10
1.046729,1.375297,10
1.060233,1.350431,10
1.073484,1.325061,10
1.086476,1.299199,10
1.099204,1.272858,10
1.111665,1.246051,10
1.123853,1.218794,10
1.135764,1.191102,10
1.147393,1.16299,10
1.158738,1.134476,10
1.169794,1.105575,10
1.180557,1.076306,10
1.191024,1.046686,10
1.201191,1.016732,10
1.211056,0.986462,10
1.220615,0.955894,10
1.229865,0.925044,10
1.238805,0.89393,10
1.24743,0.86257,10
1.25574,0.830978,10
1.263732,0.799171,10
1.271403,0.767164,10
1.278753,0.734973,10
1.285779,0.702611,10
1.29248,0.670091,10
1.298854,0.637428,10
1.304901,0.604632,10
1.310618,0.571716,10
1.316005,0.53869,10
1.32106,0.505566,10
1.325784,0.472351,10
1.330175,0.439056,10
1.334237,0.406296,10
1.337985,0.374729,10
1.341429,0.344402,10
1.344582,0.315325,10
1.347457,0.287505,10
1.350067,0.260947,10
1.352423,0.235658,10
1.35454,0.211643,10
1.356429,0.188906,10
1.358103,0.167451,10
1.359576,0.14728,10
1.36086,0.128398,10
1.361968,0.110805,10
1.362913,0.094503,10
1.363708,0.079496,10
1.364366,0.065783,10
1.364899,0.053367,10
1.365322,0.042247,10
1.365646,0.032425,10
1.365885,0.023901,10
1.366052,0.016676,10
1.366159,0.01075,10
1.366221,0.006124,10
1.366249,0.002796,10
1.366256,0.000768,10
1.366257,0.000039,10
1.366257,0,10
=======
=======
>>>>>>> parent of 73cd4e7... Merge branch 'master' of https://github.com/ASL-Robotics/Griffins-2018
{{0.004801,0.96025,10.0},

{0.014417,0.961548,10.0},

{0.030556,1.613977,10.0},

{0.053435,2.287891,10.0},

{0.080065,2.662925,10.0},

{0.107291,2.722638,10.0},

{0.135186,2.789508,10.0},

{0.163806,2.861982,10.0},

{0.193192,2.938583,10.0},

{0.223372,3.017985,10.0},

{0.254362,3.099067,10.0},

{0.286172,3.180929,10.0},

{0.318801,3.262897,10.0},

{0.352246,3.344505,10.0},

{0.3865,3.42547,10.0},

{0.421557,3.505662,10.0},

{0.457408,3.585078,10.0},

{0.494046,3.663813,10.0},

{0.531466,3.742029,10.0},

{0.569666,3.81994,10.0},

{0.608643,3.897783,10.0},

{0.648401,3.975801,10.0},

{0.688944,4.054223,10.0},

{0.730276,4.133241,10.0},

{0.772406,4.212991,10.0},

{0.815341,4.293524,10.0},

{0.859089,4.374783,10.0},

{0.903655,4.456572,10.0},

{0.94904,4.538528,10.0},

{0.995241,4.620092,10.0},

{1.042246,4.700487,10.0},

{1.090033,4.778712,10.0},

{1.138568,4.853549,10.0},

{1.187804,4.923596,10.0},

{1.237678,4.987331,10.0},

{1.285202,4.752408,10.0},

{1.323839,3.863777,10.0},

{1.349902,2.606222,10.0},

{1.363228,1.332658,10.0},

{1.366694,0.346578,10.0},

{1.366694,0,10.0}}
<<<<<<< HEAD
>>>>>>> parent of 73cd4e7... Merge branch 'master' of https://github.com/ASL-Robotics/Griffins-2018
=======
>>>>>>> parent of 73cd4e7... Merge branch 'master' of https://github.com/ASL-Robotics/Griffins-2018
