<<<<<<< HEAD
position,velocity,dt
-0.000005,-0.000993,10
-0.000025,-0.00298,10
-0.00007,-0.005959,10
-0.000149,-0.009932,10
-0.000273,-0.014898,10
-0.000452,-0.020858,10
-0.000695,-0.02781,10
-0.001013,-0.035756,10
-0.001415,-0.044695,10
-0.001912,-0.054628,10
-0.002513,-0.065553,10
-0.003228,-0.077472,10
-0.004067,-0.090384,10
-0.005041,-0.104289,10
-0.006158,-0.119188,10
-0.007429,-0.135079,10
-0.008865,-0.151964,10
-0.010474,-0.169842,10
-0.012266,-0.188714,10
-0.014253,-0.208578,10
-0.016438,-0.228443,10
-0.018822,-0.248308,10
-0.021404,-0.268172,10
-0.024185,-0.288037,10
-0.027165,-0.307902,10
-0.030343,-0.327766,10
-0.03372,-0.347631,10
-0.037296,-0.367495,10
-0.04107,-0.38736,10
-0.045043,-0.407225,10
-0.049215,-0.427089,10
-0.053585,-0.446954,10
-0.058154,-0.466818,10
-0.062921,-0.486683,10
-0.067887,-0.506548,10
-0.073052,-0.526412,10
-0.078416,-0.546277,10
-0.083978,-0.566142,10
-0.089738,-0.586006,10
-0.095698,-0.605871,10
-0.101856,-0.625735,10
-0.108212,-0.6456,10
-0.114768,-0.665465,10
-0.121522,-0.685329,10
-0.128474,-0.705194,10
-0.135626,-0.725058,10
-0.142976,-0.744923,10
-0.150524,-0.764788,10
-0.158271,-0.784652,10
-0.166217,-0.804517,10
-0.174362,-0.824382,10
-0.182705,-0.844246,10
-0.191247,-0.864111,10
-0.199987,-0.883975,10
-0.208926,-0.90384,10
-0.218064,-0.923705,10
-0.2274,-0.943569,10
-0.236935,-0.963434,10
-0.246669,-0.983298,10
-0.256601,-1.003163,10
-0.266732,-1.023028,10
-0.277062,-1.042892,10
-0.287585,-1.061764,10
-0.298292,-1.079642,10
-0.309173,-1.096527,10
-0.320218,-1.112418,10
-0.331416,-1.127317,10
-0.342759,-1.141222,10
-0.354236,-1.154134,10
-0.365837,-1.166053,10
-0.377552,-1.176978,10
-0.389371,-1.186911,10
-0.401285,-1.19585,10
-0.413283,-1.203796,10
-0.425356,-1.210748,10
-0.437493,-1.216708,10
-0.449685,-1.221674,10
-0.461922,-1.225647,10
-0.474193,-1.228626,10
-0.486489,-1.230613,10
-0.498801,-1.231606,10
-0.511115,-1.231235,10
-0.52342,-1.229871,10
-0.535707,-1.227514,10
-0.547966,-1.224164,10
-0.560185,-1.21982,10
-0.572357,-1.214483,10
-0.58447,-1.208153,10
-0.596515,-1.20083,10
-0.608482,-1.192513,10
-0.62036,-1.183203,10
-0.632141,-1.1729,10
-0.643813,-1.161604,10
-0.655368,-1.149314,10
-0.666795,-1.136032,10
-0.678084,-1.121756,10
-0.689225,-1.106486,10
-0.700208,-1.090224,10
-0.711024,-1.072968,10
-0.721663,-1.054719,10
-0.732114,-1.035477,10
-0.742369,-1.015613,10
-0.752426,-0.995748,10
-0.762284,-0.975883,10
-0.771944,-0.956019,10
-0.781405,-0.936154,10
-0.790667,-0.91629,10
-0.79973,-0.896425,10
-0.808595,-0.87656,10
-0.817262,-0.856696,10
-0.825729,-0.836831,10
-0.833998,-0.816966,10
-0.842069,-0.797102,10
-0.84994,-0.777237,10
-0.857613,-0.757373,10
-0.865088,-0.737508,10
-0.872363,-0.717643,10
-0.879441,-0.697779,10
-0.886319,-0.677914,10
-0.892999,-0.65805,10
-0.89948,-0.638185,10
-0.905763,-0.61832,10
-0.911846,-0.598456,10
-0.917732,-0.578591,10
-0.923418,-0.558726,10
-0.928906,-0.538862,10
-0.934196,-0.518997,10
-0.939286,-0.499133,10
-0.944178,-0.479268,10
-0.948872,-0.459403,10
-0.953366,-0.439539,10
-0.957662,-0.419674,10
-0.96176,-0.39981,10
-0.965658,-0.379945,10
-0.969359,-0.36008,10
-0.97286,-0.340216,10
-0.976163,-0.320351,10
-0.979267,-0.300486,10
-0.982173,-0.280622,10
-0.98488,-0.260757,10
-0.987388,-0.240893,10
-0.989697,-0.221028,10
-0.991808,-0.201163,10
-0.993723,-0.181669,10
-0.995447,-0.163169,10
-0.996991,-0.145661,10
-0.998365,-0.129147,10
-0.999579,-0.113626,10
-1.000642,-0.099099,10
-1.001566,-0.085564,10
-1.002359,-0.073023,10
-1.003031,-0.061475,10
-1.003593,-0.05092,10
-1.004055,-0.041359,10
-1.004425,-0.03279,10
-1.004715,-0.025215,10
-1.004935,-0.018633,10
-1.005093,-0.013045,10
-1.0052,-0.008449,10
-1.005267,-0.004847,10
-1.005302,-0.002238,10
-1.005317,-0.000622,10
-1.00532,0,10
-1.00532,0,10
=======
{-{-0.004801,-0.96025,10.0}
,
{-0.019205,-1.9205,10.0}
,
{-0.043211,-2.88075,10.0}
,
{-0.07682,-3.841,10.0}
,
{-0.11523,-3.841,10.0}
,
{-0.15364,-3.841,10.0}
,
{-0.19205,-3.841,10.0}
,
{-0.23046,-3.841,10.0}
,
{-0.26887,-3.841,10.0}
,
{-0.30728,-3.841,10.0}
,
{-0.34569,-3.841,10.0}
,
{-0.3841,-3.841,10.0}
,
{-0.42251,-3.841,10.0}
,
{-0.46092,-3.841,10.0}
,
{-0.49933,-3.841,10.0}
,
{-0.53774,-3.841,10.0}
,
{-0.57615,-3.841,10.0}
,
{-0.61456,-3.841,10.0}
,
{-0.65297,-3.841,10.0}
,
{-0.69138,-3.841,10.0}
,
{-0.72979,-3.841,10.0}
,
{-0.7682,-3.841,10.0}
,
{-0.80661,-3.841,10.0}
,
{-0.84502,-3.841,10.0}
,
{-0.88343,-3.841,10.0}
,
{-0.92184,-3.841,10.0}
,
{-0.96025,-3.841,10.0}
,
{-0.99866,-3.841,10.0}
,
{-1.03707,-3.841,10.0}
,
{-1.07548,-3.841,10.0}
,
{-1.11389,-3.841,10.0}
,
{-1.1523,-3.841,10.0}
,
{-1.19071,-3.841,10.0}
,
{-1.22912,-3.841,10.0}
,
{-1.26753,-3.841,10.0}
,
{-1.30594,-3.841,10.0}
,
{-1.34435,-3.841,10.0}
,
{-1.38276,-3.841,10.0}
,
{-1.42117,-3.841,10.0}
,
{-1.45958,-3.841,10.0}
,
{-1.495136,-3.270108,10.0}
,
{-1.523035,-2.309858,10.0}
,
{-1.541333,-1.349608,10.0}
,
{-1.550028,-0.389358,10.0}
,
{-1.551974,0,10.0}
,
{-1.551974,0,10.0}}
>>>>>>> parent of 73cd4e7... Merge branch 'master' of https://github.com/ASL-Robotics/Griffins-2018
